id,latitude,longitude
1,-7.27878000,112.79791000
2,-7.27878810,112.79792619
3,-7.27880000,112.79793379
4,-7.27880190,112.79795000
5,-7.27881702,112.79795702
6,-7.27883379,112.79796000
7,-7.27885178,112.79796000
8,-7.27886976,112.79796000
9,-7.27888000,112.79794630
10,-7.27889000,112.79793825
11,-7.27889000,112.79792012
12,-7.27889000,112.79790199
13,-7.27889000,112.79788386
14,-7.27888000,112.79787580
15,-7.27887000,112.79786775
16,-7.27885970,112.79786000
17,-7.27884172,112.79786000
